# column 1 = time
# column 2 = pressure
# column 3 = temperature
# column 4 = density
# column 5 = total compressibility
# columns 6-7 = phase fractions
# columns 8-9 = phase densities
# columns 10-11 = phase viscosities
# columns 12-13 = gas phase fractions [co2, water]
# columns 14-15 = water phase fractions [co2, water]
 0.000000e+00  1.000000e+06  3.500000e+02  3.016536e+01 -0.000000e+00  5.089022e-01  4.910978e-01  1.558128e+01  1.003303e+03  1.747638e-05  4.133014e-04  1.000000e+00  0.000000e+00  2.277994e-03  9.977220e-01 
 5.000000e-02  6.444444e+06  3.500000e+02  2.204502e+02  1.813689e-07  4.971868e-01  5.028132e-01  1.230946e+02  1.011473e+03  1.899815e-05  4.133014e-04  1.000000e+00  0.000000e+00  1.195219e-02  9.880478e-01 
 1.000000e-01  1.188889e+07  3.500000e+02  4.740379e+02  1.076109e-07  4.906675e-01  5.093325e-01  3.049677e+02  1.017404e+03  2.535323e-05  4.133014e-04  1.000000e+00  0.000000e+00  1.725476e-02  9.827452e-01 
 1.500000e-01  1.733333e+07  3.500000e+02  7.117985e+02  3.924119e-08  4.875889e-01  5.124111e-01  5.396999e+02  1.021864e+03  4.093159e-05  4.133014e-04  1.000000e+00  0.000000e+00  1.973906e-02  9.802609e-01 
 2.000000e-01  2.277778e+07  3.500000e+02  8.143664e+02  1.568867e-08  4.857319e-01  5.142681e-01  6.684956e+02  1.025779e+03  5.380604e-05  4.133014e-04  1.000000e+00  0.000000e+00  2.123157e-02  9.787684e-01 
 2.500000e-01  2.822222e+07  3.500000e+02  8.661828e+02  8.383166e-09  4.842377e-01  5.157623e-01  7.409817e+02  1.029502e+03  6.305096e-05  4.133014e-04  1.000000e+00  0.000000e+00  2.242914e-02  9.775709e-01 
 3.000000e-01  3.366667e+07  3.500000e+02  8.997842e+02  5.826937e-09  4.829188e-01  5.170812e-01  7.905432e+02  1.033113e+03  7.052829e-05  4.133014e-04  1.000000e+00  0.000000e+00  2.348377e-02  9.765162e-01 
 3.500000e-01  3.911111e+07  3.500000e+02  9.246170e+02  4.287711e-09  4.817100e-01  5.182900e-01  8.283089e+02  1.036641e+03  7.702816e-05  4.133014e-04  1.000000e+00  0.000000e+00  2.444839e-02  9.755516e-01 
 4.000000e-01  4.455556e+07  3.500000e+02  9.443580e+02  3.486464e-09  4.805809e-01  5.194191e-01  8.589037e+02  1.040103e+03  8.291432e-05  4.133014e-04  1.000000e+00  0.000000e+00  2.534769e-02  9.746523e-01 
 4.500000e-01  5.000000e+07  3.500000e+02  9.608387e+02 -0.000000e+00  4.795131e-01  5.204869e-01  8.847573e+02  1.043507e+03  8.838897e-05  4.133014e-04  1.000000e+00  0.000000e+00  2.619663e-02  9.738034e-01 
 5.000000e-01  3.000000e+07  3.040000e+02  9.078687e+02  5.838703e-09  4.832110e-01  5.167890e-01  8.012123e+02  1.036935e+03  7.197071e-05  8.663108e-04  1.000000e+00  0.000000e+00  2.325036e-02  9.767496e-01 
 5.500000e-01  1.000000e+07  2.580000e+02  4.170658e+02  1.337702e-07  4.908528e-01  5.091472e-01  2.586152e+02  1.018909e+03  2.279620e-05  1.951069e-03  1.000000e+00  0.000000e+00  1.710488e-02  9.828951e-01 
 6.000000e-01  1.000000e+07  2.715556e+02  4.171930e+02  1.338278e-07  4.908528e-01  5.091472e-01  2.586152e+02  1.020402e+03  2.279620e-05  1.958758e-03  1.000000e+00  0.000000e+00  1.710488e-02  9.828951e-01 
 6.500000e-01  1.000000e+07  2.851111e+02  4.172927e+02  1.338729e-07  4.908528e-01  5.091472e-01  2.586152e+02  1.021574e+03  2.279620e-05  1.368087e-03  1.000000e+00  0.000000e+00  1.710488e-02  9.828951e-01 
 7.000000e-01  1.000000e+07  2.986667e+02  4.173656e+02  1.339059e-07  4.908528e-01  5.091472e-01  2.586152e+02  1.022433e+03  2.279620e-05  9.702194e-04  1.000000e+00  0.000000e+00  1.710488e-02  9.828951e-01 
 7.500000e-01  1.000000e+07  3.122222e+02  4.174125e+02  1.339271e-07  4.908528e-01  5.091472e-01  2.586152e+02  1.022986e+03  2.279620e-05  7.369136e-04  1.000000e+00  0.000000e+00  1.710488e-02  9.828951e-01 
 8.000000e-01  1.000000e+07  3.257778e+02  4.174342e+02  1.339368e-07  4.908528e-01  5.091472e-01  2.586152e+02  1.023241e+03  2.279620e-05  5.834457e-04  1.000000e+00  0.000000e+00  1.710488e-02  9.828951e-01 
 8.500000e-01  1.000000e+07  3.393333e+02  4.174312e+02  1.339355e-07  4.908528e-01  5.091472e-01  2.586152e+02  1.023206e+03  2.279620e-05  4.764507e-04  1.000000e+00  0.000000e+00  1.710488e-02  9.828951e-01 
 9.000000e-01  1.000000e+07  3.528889e+02  3.689582e+02  1.210270e-07  4.924209e-01  5.075791e-01  2.228654e+02  1.013465e+03  2.202009e-05  3.976352e-04  1.000000e+00  0.000000e+00  1.583424e-02  9.841658e-01 
 9.500000e-01  1.000000e+07  3.664444e+02  3.486543e+02  1.159173e-07  4.924209e-01  5.075791e-01  2.082466e+02  1.007969e+03  2.180034e-05  3.409282e-04  1.000000e+00  0.000000e+00  1.583424e-02  9.841658e-01 
 1.000000e+00  1.000000e+07  3.800000e+02  3.486072e+02  1.158935e-07  4.924209e-01  5.075791e-01  2.082466e+02  1.007194e+03  2.185984e-05  2.967198e-04  1.000000e+00  0.000000e+00  1.583424e-02  9.841658e-01 
